Mid Time Julian, MET, Spacecraft-Sun (km), Spacecraft-Target (km), Side, Red Flux, Red Flux Error, Blue Flux, Blue Flux Error, NIR Flux, NIR Flux Error, CH4 Flux, CH4 Flux Error
      2457121.700752    290860857    4.8032780e+09    1.1468086e+08            0       38288.8       455.948       9572.02       387.955       32121.1       434.237       6767.91       384.418
      2457124.633391    291114237    4.8069300e+09    1.1119103e+08            1       38751.2       480.218       9520.97       425.499       30296.0       561.644       6746.35       380.096
      2457125.647280    291201837    4.8081926e+09    1.0998290e+08            0       41687.3       457.957       9560.04       388.845       33860.8       443.906       7749.28       389.506
      2457126.408391    291267597    4.8091403e+09    1.0907530e+08            1       42620.3       484.479       10592.0       430.901       32437.4       562.112       7737.93       382.954
      2457126.877141    291308097    4.8097240e+09    1.0851631e+08            0       45075.9       462.646       11353.4       396.797       35956.3       446.275       7687.16       388.529
      2457127.640336    291374037    4.8106743e+09    1.0760659e+08            1       46082.2       463.826       11157.5       392.952       38114.7       447.760       8796.73       392.268
      2457128.409780    291440517    4.8116324e+09    1.0669024e+08            0       41952.2       464.663       9947.41       392.885       35072.3       443.830       8342.92       404.161
      2457128.880613    291481197    4.8122186e+09    1.0612990e+08            1       39247.4       449.633       9526.79       393.315       30930.2       432.209       7096.20       381.888
      2457129.643113    291547077    4.8131680e+09    1.0522283e+08            0       42308.8       461.305       10216.3       401.201       34845.1       468.707       7693.10       635.454
      2457130.358391    291608877    4.8140586e+09    1.0437188e+08            1       44263.6       457.209       10489.3       394.828       33492.7       439.636       7260.42       384.146
      2457130.853530    291651657    4.8146750e+09    1.0378253e+08            0       45540.6       472.689       10819.5       396.287       36757.1       448.917       7972.12       403.124
      2457132.822975    291821817    4.8171270e+09    1.0143523e+08            1       48308.2       480.570       11617.5       415.619       36791.8       552.417       8921.89       386.185
      2457134.882697    291999777    4.8196913e+09        98980823.            0       48577.8       479.401       11989.5       408.304       39933.9       465.254       10227.3       590.429
      2457137.591725    292233837    4.8230636e+09        95757192.            1       52172.6       472.053       13158.2       398.913       37229.1       446.275       9513.45       385.820
      2457139.586169    292406157    4.8255463e+09        93379527.            0       60724.1       489.470       15247.4       404.781       47538.4       490.978       10160.3       681.289
      2457141.209780    292546437    4.8275672e+09        91445064.            1       57185.2       480.025       14136.9       398.379       41435.8       454.040       10980.1       395.534
      2457143.577141    292750977    4.8305138e+09        88628349.            0       62754.9       501.967       14917.1       407.038       50249.8       471.369       10690.5       413.351
      2457145.564988    292922727    4.8329878e+09        86259246.            1       67532.1       522.494       17256.0       434.928       48214.3       588.729       12465.4       398.602
      2457147.563947    293095437    4.8354755e+09        83877130.            0       67921.8       502.880       16738.8       407.001       55940.1       512.405       12929.7       654.726
      2457150.776447    293372997    4.8394732e+09        80053815.            1       74867.6       510.002       18566.5       407.494       53788.6       475.759       14128.8       402.123
      2457151.634780    293447157    4.8405412e+09        79030546.            0       81453.8       530.778       20311.9       413.173       64023.3       492.453       14361.6       400.358
      2457152.336169    293507757    4.8414140e+09        78194137.            1       84192.9       538.148       20423.0       429.333       60890.1       577.825       15212.0       396.708
      2457152.770891    293545317    4.8419549e+09        77675851.            0       87974.6       540.436       21833.9       415.258       69742.7       501.951       15795.9       402.350
      2457153.512558    293609397    4.8428778e+09        76792139.            1       85843.6       550.254       21219.6       444.824       59145.7       605.355       16776.4       406.929
      2457154.323669    293679477    4.8438870e+09        75826588.            0       80806.5       521.817       18727.6       409.861       65928.5       496.602       14856.4       401.831
      2457154.822280    293722557    4.8445074e+09        75233400.            1       78400.6       537.859       19386.4       456.328       58994.3       592.263       15096.9       404.375
      2457155.610475    293790657    4.8454881e+09        74295830.            0       85532.8       533.875       20902.2       412.457       69169.4       500.342       14651.3       401.286
      2457156.313600    293851407    4.8463629e+09        73459104.            1       88463.1       548.368       22114.2       439.091       64507.9       587.848       16416.2       403.911
      2457156.570891    293873637    4.8466830e+09        73152766.            0       92242.4       541.123       21836.9       417.790       72756.0       537.599       15544.3       663.014
      2457157.322975    293938617    4.8476187e+09        72256757.            1       91989.0       552.978       21985.1       433.701       66327.7       585.417       17207.2       403.316
      2457171.984780    295205397    4.8658563e+09        54792185.            1       171185.       668.774       41330.9       481.117       152752.       696.214       33279.3       436.313
      2457172.273669    295230357    4.8662156e+09        54447902.            0       176267.       725.155       42732.5       536.998       147584.       680.443       32708.9       522.248
      2457172.743113    295270917    4.8667994e+09        53888696.            0       172733.       711.492       42499.3       537.690       148050.       678.438       32713.0       520.774
      2457173.556308    295341177    4.8678107e+09        52920757.            1       163142.       693.869       38184.3       527.081       129461.       655.660       30665.4       512.630
      2457174.280613    295403757    4.8687114e+09        52059150.            1       170060.       708.842       40625.2       529.172       146139.       678.151       32599.6       522.195
      2457174.752141    295444497    4.8692978e+09        51498263.            0       179699.       722.892       42810.6       540.430       150160.       687.296       33544.9       525.692
      2457175.561169    295514397    4.8703038e+09        50535492.            1       192825.       736.573       43027.4       541.644       145316.       683.794       35622.3       526.249
      2457176.258391    295574637    4.8711708e+09        49705057.            0       199023.       744.717       48463.9       543.196       162385.       701.033       36857.4       525.652
      2457176.686169    295611597    4.8717028e+09        49195211.            0       204273.       747.919       48664.0       538.916       171517.       709.156       37504.2       526.129
      2457179.550752    295859097    4.8752647e+09        45781120.            1       218341.       764.369       51874.9       549.243       199610.       740.144       45814.4       527.790
      2457181.557697    296032497    4.8777600e+09        43393490.            1       254262.       834.643       61142.4       613.124       208882.       875.402       46174.5       539.333
      2457183.553530    296204937    4.8802414e+09        41015715.            1       294441.       859.929       71753.1       609.179       230031.       859.234       53177.8       543.574
      2457185.544514    296376957    4.8827166e+09        38642530.            0       338225.       891.788       81337.2       592.127       281268.       830.875       63390.8       565.915
      2457190.295208    296787417    4.8886220e+09        32986138.            0       470673.       1026.80       112448.       648.459       388087.       941.289       84892.5       641.519
      2457190.746597    296826417    4.8891831e+09        32447909.            1       494667.       1043.55       120946.       679.263       387316.       1003.33       88300.1       600.319
      2457192.318125    296962197    4.8911364e+09        30575721.            0       515839.       1037.63       124681.       644.946       437878.       971.914       98069.8       610.794
      2457192.836181    297006957    4.8917802e+09        29959286.            1       504207.       1071.75       120759.       724.361       402298.       1162.35       96165.8       618.192
      2457193.541736    297067917    4.8926572e+09        29120053.            0       545893.       1084.89       129077.       670.948       991.609       492.594       103360.       665.157
      2457194.747292    297172077    4.8941555e+09        27685641.            1       630292.       1147.59       151844.       715.309       482256.       1088.16       112570.       632.882
      2457195.523681    297239157    4.8951204e+09        26760882.            0       686686.       1175.97       163386.       698.784       561480.       1078.78       125405.       651.924
      2457196.632708    297334977    4.8964986e+09        25438713.            1       777331.       1279.15       188480.       798.079       600739.       1283.24       140091.       676.645
      2457200.707569    297687047    4.9015624e+09        20587098.            1   1.11207e+06       1485.75       268889.       899.687       889478.       1352.30       211524.       840.792
      2457201.893692    297789527    4.9030363e+09        19174697.            0   1.32220e+06       1608.48       313113.       939.882   1.11530e+06       1539.91       248752.       1630.22
      2457202.681887    297857627    4.9040156e+09        18235118.            1   1.46448e+06       1684.83       358322.       974.553   1.18567e+06       1539.38       279417.       913.783
      2457205.222164    298077108    4.9071720e+09        15208055.            1   2.00689e+06       1973.00       493211.       1161.31   1.54779e+06       1971.92       385164.       999.209
      2457206.242188    298165238    4.9084393e+09        13994619.            0   2.31204e+06       2070.44       550441.       1140.23   1.99609e+06       1975.75       453600.       1728.95
